Current (mA)	Peak position(s) (nm)
 2.000	850.591
 3.000	851.476
 4.000	852.464
 5.000	853.512
 6.000	853.642
 7.000	853.642
 8.000	853.664
 9.000	853.642
10.000	853.642
12.000	853.642
14.000	853.664
16.000	853.664
18.000	853.664
20.000	853.664
