Current (mA)	Peak position(s) (nm)
 2.000	852.486
 3.000	853.185
 4.000	853.989
 5.000	854.854
 6.000	855.262
 7.000	855.262
 8.000	855.262
 9.000	855.262
10.000	855.262
12.000	855.262
14.000	855.262
16.000	855.284
18.000	855.284
20.000	855.262
